* C:\Jon\measurements\Morel CAW938\tweeter diffraction.frd
* 
 10  -5.9927   0 
 10.1517  -5.9925   0 
 10.3056  -5.9922   0 
 10.4619  -5.992   0 
 10.6205  -5.9918   0 
 10.7816  -5.9915   0 
 10.9451  -5.9912   0 
 11.1111  -5.991   0 
 11.2796  -5.9907   0 
 11.4507  -5.9904   0 
 11.6243  -5.9901   0 
 11.8006  -5.9898   0 
 11.9795  -5.9895   0 
 12.1612  -5.9891   0 
 12.3456  -5.9888   0 
 12.5329  -5.9884   0 
 12.7229  -5.9881   0 
 12.9159  -5.9877   0 
 13.1117  -5.9873   0 
 13.3106  -5.9869   0 
 13.5124  -5.9865   0 
 13.7174  -5.9861   0 
 13.9254  -5.9857   0 
 14.1366  -5.9852   0 
 14.3509  -5.9848   0 
 14.5686  -5.9843   0 
 14.7895  -5.9838   0 
 15.0138  -5.9833   0 
 15.2415  -5.9828   0 
 15.4726  -5.9823   0 
 15.7073  -5.9817   0 
 15.9455  -5.9812   0 
 16.1873  -5.9806   0 
 16.4328  -5.98   0 
 16.682  -5.9794   0 
 16.935  -5.9788   0 
 17.1918  -5.9781   0 
 17.4525  -5.9774   0 
 17.7172  -5.9767   0 
 17.9859  -5.976   0 
 18.2586  -5.9753   0 
 18.5355  -5.9745   0 
 18.8166  -5.9737   0 
 19.102  -5.9729   0 
 19.3916  -5.9721   0 
 19.6857  -5.9712   0 
 19.9843  -5.9704   0 
 20.2873  -5.9695   0 
 20.595  -5.9685   0 
 20.9073  -5.9676   0 
 21.2244  -5.9666   0 
 21.5462  -5.9655   0 
 21.873  -5.9645   0 
 22.2047  -5.9634   0 
 22.5414  -5.9623   0 
 22.8833  -5.9611   0 
 23.2303  -5.9599   0 
 23.5826  -5.9587   0 
 23.9402  -5.9574   0 
 24.3033  -5.9561   0 
 24.6718  -5.9548   0 
 25.046  -5.9534   0 
 25.4258  -5.952   0 
 25.8114  -5.9505   0 
 26.2028  -5.949   0 
 26.6002  -5.9475   0 
 27.0036  -5.9459   0 
 27.4131  -5.9442   0 
 27.8288  -5.9425   0 
 28.2509  -5.9408   0 
 28.6793  -5.939   0 
 29.1142  -5.9371   0 
 29.5557  -5.9352   0 
 30.004  -5.9332   0 
 30.459  -5.9312   0 
 30.9209  -5.9291   0 
 31.3898  -5.9269   0 
 31.8658  -5.9247   0 
 32.3491  -5.9224   0 
 32.8397  -5.9201   0 
 33.3377  -5.9176   0 
 33.8433  -5.9151   0 
 34.3565  -5.9126   0 
 34.8775  -5.9099   0 
 35.4064  -5.9072   0 
 35.9434  -5.9044   0 
 36.4885  -5.9015   0 
 37.0418  -5.8985   0 
 37.6036  -5.8954   0 
 38.1738  -5.8923   0 
 38.7527  -5.889   0 
 39.3404  -5.8856   0 
 39.937  -5.8822   0 
 40.5427  -5.8786   0 
 41.1575  -5.875   0 
 41.7817  -5.8712   0 
 42.4153  -5.8673   0 
 43.0585  -5.8633   0 
 43.7115  -5.8592   0 
 44.3744  -5.8549   0 
 45.0474  -5.8506   0 
 45.7305  -5.8461   0 
 46.424  -5.8414   0 
 47.128  -5.8367   0 
 47.8427  -5.8318   0 
 48.5683  -5.8267   0 
 49.3048  -5.8215   0 
 50.0525  -5.8162   0 
 50.8116  -5.8107   0 
 51.5822  -5.805   0 
 52.3644  -5.7992   0 
 53.1585  -5.7932   0 
 53.9647  -5.787   0 
 54.7831  -5.7806   0 
 55.6139  -5.7741   0 
 56.4572  -5.7673   0 
 57.3134  -5.7604   0 
 58.1826  -5.7533   0 
 59.0649  -5.7459   0 
 59.9607  -5.7384   0 
 60.87  -5.7306   0 
 61.7931  -5.7226   0 
 62.7302  -5.7144   0 
 63.6815  -5.706   0 
 64.6472  -5.6973   0 
 65.6276  -5.6883   0 
 66.6229  -5.6791   0 
 67.6332  -5.6697   0 
 68.6589  -5.66   0 
 69.7001  -5.65   0 
 70.7571  -5.6397   0 
 71.8302  -5.6291   0 
 72.9195  -5.6182   0 
 74.0253  -5.6071   0 
 75.1479  -5.5956   0 
 76.2875  -5.5838   0 
 77.4444  -5.5716   0 
 78.6189  -5.5592   0 
 79.8112  -5.5464   0 
 81.0215  -5.5332   0 
 82.2502  -5.5197   0 
 83.4975  -5.5058   0 
 84.7638  -5.4915   0 
 86.0493  -5.4769   0 
 87.3542  -5.4618   0 
 88.6789  -5.4464   0 
 90.0238  -5.4305   0 
 91.389  -5.4142   0 
 92.7749  -5.3975   0 
 94.1819  -5.3803   0 
 95.6101  -5.3627   0 
 97.0601  -5.3446   0 
 98.532  -5.3261   0 
 100.0263  -5.307   0 
 101.5432  -5.2875   0 
 103.0831  -5.2675   0 
 104.6464  -5.247   0 
 106.2333  -5.2259   0 
 107.8444  -5.2043   0 
 109.4799  -5.1822   0 
 111.1401  -5.1595   0 
 112.8256  -5.1362   0 
 114.5366  -5.1124   0 
 116.2736  -5.088   0 
 118.0369  -5.063   0 
 119.8269  -5.0374   0 
 121.6441  -5.0112   0 
 123.4888  -4.9843   0 
 125.3616  -4.9568   0 
 127.2627  -4.9287   0 
 129.1927  -4.8999   0 
 131.1519  -4.8705   0 
 133.1408  -4.8404   0 
 135.1599  -4.8096   0 
 137.2096  -4.7781   0 
 139.2904  -4.746   0 
 141.4028  -4.7131   0 
 143.5472  -4.6795   0 
 145.7241  -4.6452   0 
 147.934  -4.6102   0 
 150.1775  -4.5744   0 
 152.4549  -4.5379   0 
 154.7669  -4.5006   0 
 157.114  -4.4626   0 
 159.4966  -4.4238   0 
 161.9154  -4.3843   0 
 164.3709  -4.344   0 
 166.8636  -4.303   0 
 169.3941  -4.2611   0 
 171.963  -4.2186   0 
 174.5708  -4.1752   0 
 177.2182  -4.1311   0 
 179.9058  -4.0862   0 
 182.6341  -4.0405   0 
 185.4037  -3.994   0 
 188.2154  -3.9468   0 
 191.0697  -3.8989   0 
 193.9673  -3.8502   0 
 196.9088  -3.8007   0 
 199.895  -3.7505   0 
 202.9264  -3.6996   0 
 206.0038  -3.648   0 
 209.1279  -3.5957   0 
 212.2994  -3.5426   0 
 215.5189  -3.4889   0 
 218.7873  -3.4346   0 
 222.1052  -3.3795   0 
 225.4735  -3.3239   0 
 228.8928  -3.2676   0 
 232.364  -3.2108   0 
 235.8878  -3.1534   0 
 239.4651  -3.0954   0 
 243.0966  -3.037   0 
 246.7832  -2.978   0 
 250.5257  -2.9186   0 
 254.325  -2.8587   0 
 258.1818  -2.7985   0 
 262.0972  -2.7378   0 
 266.0719  -2.6769   0 
 270.107  -2.6156   0 
 274.2032  -2.5541   0 
 278.3615  -2.4924   0 
 282.5829  -2.4305   0 
 286.8683  -2.3685   0 
 291.2187  -2.3063   0 
 295.6351  -2.2442   0 
 300.1184  -2.182   0 
 304.6697  -2.1199   0 
 309.2901  -2.0578   0 
 313.9805  -1.9959   0 
 318.7421  -1.9343   0 
 323.5758  -1.8728   0 
 328.4829  -1.8117   0 
 333.4644  -1.7509   0 
 338.5214  -1.6906   0 
 343.6552  -1.6307   0 
 348.8667  -1.5713   0 
 354.1573  -1.5126   0 
 359.5282  -1.4544   0 
 364.9805  -1.397   0 
 370.5155  -1.3403   0 
 376.1344  -1.2843   0 
 381.8385  -1.2293   0 
 387.6291  -1.1751   0 
 393.5076  -1.1219   0 
 399.4752  -1.0697   0 
 405.5333  -1.0186   0 
 411.6832  -0.9686   0 
 417.9265  -0.9196   0 
 424.2644  -0.8719   0 
 430.6984  -0.8254   0 
 437.23  -0.78   0 
 443.8607  -0.736   0 
 450.5919  -0.6932   0 
 457.4251  -0.6517   0 
 464.3621  -0.6115   0 
 471.4042  -0.5726   0 
 478.5531  -0.535   0 
 485.8104  -0.4986   0 
 493.1778  -0.4635   0 
 500.6569  -0.4296   0 
 508.2494  -0.3968   0 
 515.9571  -0.3651   0 
 523.7816  -0.3345   0 
 531.7249  -0.3048   0 
 539.7885  -0.276   0 
 547.9745  -0.2479   0 
 556.2846  -0.2205   0 
 564.7207  -0.1935   0 
 573.2848  -0.1669   0 
 581.9787  -0.1405   0 
 590.8045  -0.1141   0 
 599.7642  -0.0876   0 
 608.8597  -0.0608   0 
 618.0931  -0.0333   0 
 627.4666  -0.0052   0 
 636.9822   0.024   0 
 646.6421   0.0544   0 
 656.4485   0.0862   0 
 666.4036   0.1196   0 
 676.5097   0.1549   0 
 686.7691   0.1923   0 
 697.1841   0.232   0 
 707.7569   0.2742   0 
 718.4902   0.319   0 
 729.3862   0.3666   0 
 740.4474   0.417   0 
 751.6764   0.4705   0 
 763.0757   0.5269   0 
 774.6478   0.5864   0 
 786.3954   0.6488   0 
 798.3212   0.7141   0 
 810.4279   0.782   0 
 822.7181   0.8525   0 
 835.1948   0.9251   0 
 847.8606   0.9996   0 
 860.7185   1.0757   0 
 873.7714   1.1527   0 
 887.0223   1.2304   0 
 900.4741   1.308   0 
 914.1299   1.385   0 
 927.9928   1.4608   0 
 942.0659   1.5346   0 
 956.3525   1.6059   0 
 970.8557   1.6737   0 
 985.5789   1.7374   0 
 1000.5253   1.7963   0 
 1015.6984   1.8496   0 
 1031.1016   1.8965   0 
 1046.7384   1.9365   0 
 1062.6123   1.9687   0 
 1078.727   1.9927   0 
 1095.086   2.0079   0 
 1111.6931   2.0139   0 
 1128.5521   2.0103   0 
 1145.6668   1.9969   0 
 1163.041   1.9737   0 
 1180.6786   1.9406   0 
 1198.5838   1.898   0 
 1216.7605   1.8462   0 
 1235.2128   1.7859   0 
 1253.945   1.7178   0 
 1272.9612   1.6431   0 
 1292.2658   1.5628   0 
 1311.8632   1.4785   0 
 1331.7578   1.3917   0 
 1351.9541   1.3042   0 
 1372.4566   1.2178   0 
 1393.2701   1.1345   0 
 1414.3992   1.0559   0 
 1435.8488   0.9839   0 
 1457.6236   0.9199   0 
 1479.7287   0.8652   0 
 1502.169   0.8203   0 
 1524.9496   0.7858   0 
 1548.0756   0.7612   0 
 1571.5524   0.7458   0 
 1595.3852   0.7382   0 
 1619.5794   0.7365   0 
 1644.1406   0.7383   0 
 1669.0742   0.7411   0 
 1694.3859   0.7418   0 
 1720.0815   0.7376   0 
 1746.1668   0.7257   0 
 1772.6476   0.7033   0 
 1799.5301   0.6685   0 
 1826.8202   0.6198   0 
 1854.5241   0.5563   0 
 1882.6483   0.4784   0 
 1911.1989   0.3872   0 
 1940.1824   0.285   0 
 1969.6056   0.1752   0 
 1999.4749   0.0624   0 
 2029.7972  -0.0481   0 
 2060.5794  -0.1505   0 
 2091.8283  -0.2386   0 
 2123.5512  -0.3068   0 
 2155.7551  -0.3507   0 
 2188.4474  -0.3672   0 
 2221.6355  -0.3555   0 
 2255.3269  -0.3173   0 
 2289.5292  -0.2566   0 
 2324.2503  -0.1796   0 
 2359.4978  -0.094   0 
 2395.2799  -0.0081   0 
 2431.6047   0.0694   0 
 2468.4803   0.1309   0 
 2505.9151   0.1706   0 
 2543.9176   0.1846   0 
 2582.4965   0.172   0 
 2621.6604   0.135   0 
 2661.4182   0.0789   0 
 2701.779   0.0121   0 
 2742.7518  -0.0549   0 
 2784.346  -0.1105   0 
 2826.571  -0.1436   0 
 2869.4363  -0.1457   0 
 2912.9517  -0.1125   0 
 2957.127  -0.0457   0 
 3001.9722   0.0477   0 
 3047.4975   0.1552   0 
 3093.7132   0.2608   0 
 3140.6298   0.3479   0 
 3188.2579   0.4009   0 
 3236.6082   0.4076   0 
 3285.6918   0.3616   0 
 3335.5198   0.2627   0 
 3386.1034   0.1185   0 
 3437.4541  -0.0562   0 
 3489.5835  -0.2403   0 
 3542.5035  -0.4098   0 
 3596.2261  -0.5416   0 
 3650.7633  -0.6189   0 
 3706.1276  -0.636   0 
 3762.3316  -0.5995   0 
 3819.3878  -0.5269   0 
 3877.3093  -0.4421   0 
 3936.1093  -0.3683   0 
 3995.8009  -0.3232   0 
 4056.3977  -0.314   0 
 4117.9135  -0.3362   0 
 4180.3623  -0.3748   0 
 4243.758  -0.4077   0 
 4308.1152  -0.4134   0 
 4373.4483  -0.378   0 
 4439.7722  -0.3018   0 
 4507.102  -0.2   0 
 4575.4528  -0.0987   0 
 4644.8401  -0.0266   0 
 4715.2797  -0.0052   0 
 4786.7876  -0.042   0 
 4859.3798  -0.1258   0 
 4933.073  -0.2286   0 
 5007.8837  -0.3121   0 
 5083.8289  -0.3406   0 
 5160.9259  -0.2955   0 
 5239.192  -0.184   0 
 5318.645  -0.0371   0 
 5399.303   0.1024   0 
 5481.1841   0.1971   0 
 5564.307   0.227   0 
 5648.6905   0.1967   0 
 5734.3536   0.1326   0 
 5821.3159   0.0728   0 
 5909.5969   0.0507   0 
 5999.2167   0.0796   0 
 6090.1956   0.1467   0 
 6182.5543   0.2211   0 
 6276.3135   0.2703   0 
 6371.4947   0.2768   0 
 6468.1192   0.246   0 
 6566.2091   0.2021   0 
 6665.7865   0.1741   0 
 6766.8741   0.1769   0 
 6869.4946   0.2011   0 
 6973.6714   0.2176   0 
 7079.4281   0.1952   0 
 7186.7886   0.1207   0 
 7295.7772   0.0073   0 
 7406.4186  -0.112   0 
 7518.7379  -0.2047   0 
 7632.7606  -0.257   0 
 7748.5124  -0.2757   0 
 7866.0196  -0.2726   0 
 7985.3089  -0.2483   0 
 8106.4071  -0.1944   0 
 8229.3419  -0.1141   0 
 8354.1409  -0.0363   0 
 8480.8326  -0.0009   0 
 8609.4456  -0.0219   0 
 8740.0089  -0.0651   0 
 8872.5523  -0.0717   0 
 9007.1058  -0.0178   0 
 9143.6997   0.0532   0 
 9282.3652   0.074   0 
 9423.1335   0.0282   0 
 9566.0365  -0.0275   0 
 9711.1068  -0.0305   0 
 9858.377   0.0069   0 
 10007.8806   0.0154   0 
 10159.6514  -0.0299   0 
 10313.7239  -0.0654   0 
 10470.1329  -0.0256   0 
 10628.9139   0.0544   0 
 10790.1027   0.0838   0 
 10953.7361   0.0464   0 
 11119.851   0.0146   0 
 11288.485   0.0237   0 
 11459.6764   0.017   0 
 11633.4639  -0.0375   0 
 11809.8869  -0.0711   0 
 11988.9854  -0.0323   0 
 12170.8   0.0127   0 
 12355.3718  -0.0027   0 
 12542.7426  -0.0315   0 
 12732.955  -0.0209   0 
 12926.0519  -0.014   0 
 13122.0772  -0.0395   0 
 13321.0753  -0.049   0 
 13523.0912  -0.0412   0 
 13728.1707  -0.0615   0 
 13936.3602  -0.0661   0 
 14147.7069  -0.0072   0 
 14362.2588   0.0366   0 
 14580.0644   0.0238   0 
 14801.173   0.0268   0 
 15025.6347   0.0347   0 
 15253.5005  -0.0099   0 
 15484.8219  -0.0397   0 
 15719.6512  -0.0148   0 
 15958.0419  -0.0036   0 
 16200.0477  -0.0106   0 
 16445.7236  -0.014   0 
 16695.1251  -0.025   0 
 16948.3089  -0.0206   0 
 17205.3323  -0.0139   0 
 17466.2535  -0.0271   0 
 17731.1315  -0.0289   0 
 18000.0265  -0.0278   0 
 18272.9993  -0.0215   0 
 18550.1118  -0.0003   0 
 18831.4267   0.0054   0 
 19117.0078   0.0061   0 
 19406.9197   0.0006   0 
 19701.2283  -0.0143   0 
 20000  -0.0207   0 
